  STEP   TOTAL TIME             LOCATION OF OBSERVATION POINTS (K,I,J)
                      3  11  29     3  19  26     3  26  23     3  33  20     3  40  17     3  48  14     3  48   9     3  52  17
     1    2.2500        130.39        130.71        107.38        94.808        66.027        28.716        13.561        10.166    
     2    4.5000        128.62        125.54        95.588        96.831        58.091        29.519        12.795        9.7745    
     3    6.7500        122.63        112.91        85.090        90.670        58.907        27.476        12.325        9.3050    
     4    9.0000        101.45        111.75        88.109        87.802        52.212        23.047        12.784        8.9724    
     5    11.250        99.265        106.81        89.166        79.027        51.142        22.082        12.108        8.1704    
     6    13.500        95.034        101.09        84.724        83.001        52.124        22.498        11.766        8.6477    
     7    15.750        92.501        107.26        78.245        83.405        49.703        21.848        11.494        7.7444    
     8    18.000        86.543        101.32        79.045        75.320        46.147        21.544        10.455        7.7220    
     9    20.250        83.270        98.144        76.508        74.725        43.086        21.044        10.568        7.1193    
    10    22.500        73.369        94.098        71.657        70.535        40.255        21.139        9.9224        6.9933    
    11    24.750        77.680        86.063        71.547        64.249        38.878        20.102        10.120        6.8996    
    12    27.000        75.977        82.477        73.895        63.382        39.785        19.802        9.7997        6.2528    
    13    29.250        76.099        89.379        68.366        61.816        38.869        20.102        9.3531        6.7072    
    14    31.500        76.224        82.719        66.445        64.071        38.229        18.280        8.4220        6.8911    
    15    33.750        68.734        81.462        61.151        67.626        39.001        19.001        8.8790        6.4428    
    16    36.000        66.380        87.832        60.704        64.272        39.093        20.159        8.0013        6.0834    
    17    38.250        58.778        75.331        62.614        62.081        39.928        19.519        9.1495        6.2732    
    18    40.500        59.165        83.963        62.091        62.483        40.191        19.170        8.5060        6.3818    
    19    42.750        60.780        76.875        63.239        61.885        38.604        18.333        8.6040        6.3855    
    20    45.000        64.071        78.963        58.108        64.032        38.582        18.103        9.4352        5.8573    
    21    47.250        59.930        77.887        60.400        61.208        36.979        18.775        8.2987        5.4672    
    22    49.500        51.271        82.572        58.293        57.886        35.840        17.898        7.8207        5.1744    
    23    51.750        52.698        78.824        59.479        58.996        37.393        18.227        8.1034        5.5164    
    24    54.000        54.848        79.151        59.194        61.325        39.870        18.297        8.3086        5.9354    
    25    56.250        56.187        81.876        61.060        57.324        38.452        17.819        8.3351        5.7233    
    26    58.500        55.480        82.443        55.453        56.716        36.571        17.414        7.8140        5.2355    
    27    60.750        54.340        81.151        57.746        57.626        42.323        17.190        7.8095        5.5116    
    28    63.000        50.273        76.459        56.471        58.887        39.093        18.028        7.7558        5.4037    
    29    65.250        50.017        75.194        54.884        56.307        38.206        17.955        7.7335        5.8893    
    30    67.500        47.617        72.429        55.052        56.167        37.569        18.180        7.5122        5.1044    
    31    69.750        45.582        76.774        55.527        57.174        34.640        18.915        8.4129        5.1829    
    32    72.000        45.415        74.477        52.508        51.863        36.701        18.272        8.5498        4.4737    
    33    74.250        43.443        79.148        53.852        55.208        37.044        17.077        7.9191        4.5413    
    34    76.500        42.233        75.538        56.857        54.294        36.339        17.891        7.7125        5.1098    
    35    78.750        42.015        74.551        55.906        55.283        35.859        19.103        7.2996        3.9658    
    36    81.000        42.144        76.773        55.424        55.979        37.287        17.456        7.5309        4.4972    
    37    83.250        39.772        78.466        54.101        52.068        35.345        16.989        6.8264        4.1754    
    38    85.500        39.394        75.938        53.547        52.032        37.796        16.023        7.5060        3.7799    
    39    87.750        39.182        76.834        53.382        53.613        38.065        16.831        7.0650        4.5108    
    40    90.000        35.869        74.843        58.334        51.108        36.521        17.473        7.2131        5.1343    
    41    92.250        37.786        74.917        52.956        52.091        35.863        16.845        7.5136        4.7808    
    42    94.500        32.829        73.551        53.030        49.531        35.255        17.330        7.6308        5.1502    
    43    96.750        33.158        75.254        53.876        51.431        34.508        17.250        7.1032        4.5325    
    44    99.000        33.319        72.750        51.188        48.548        36.168        17.917        6.6684        4.4983    
    45    101.25        33.032        72.390        47.953        48.504        36.581        17.493        6.5556        4.6032    
    46    103.50        32.327        72.732        49.065        49.715        34.515        16.604        6.1346        4.6862    
    47    105.75        31.590        74.389        47.799        49.163        32.966        17.126        6.5281        4.2223    
    48    108.00        31.195        71.370        51.297        47.754        36.188        17.244        6.9610        4.0729    
    49    110.25        29.384        74.196        52.666        49.863        35.566        17.314        6.0884        4.0479    
    50    112.50        28.273        73.277        51.281        49.478        33.812        16.992        6.4354        3.8615    
    51    114.75        30.788        76.813        50.519        46.269        32.761        16.884        6.6328        3.8402    
    52    117.00        30.820        73.008        50.977        47.712        32.558        16.237        6.3257        3.9207    
    53    119.25        27.071        72.172        52.633        48.604        35.835        16.938        5.9812        4.3449    
    54    121.50        25.212        73.061        51.621        46.084        33.322        17.592        5.9804        3.8497    
    55    123.75        25.395        77.198        50.533        47.151        33.424        17.205        7.0084        3.9079    
    56    126.00        26.313        74.974        50.440        48.450        35.140        17.015        6.8392        3.6062    
    57    128.25        22.845        72.160        50.830        47.403        33.475        17.277        7.1832        3.3321    
    58    130.50        23.152        69.217        49.649        49.532        35.821        16.468        6.6357        2.9603    
    59    132.75        22.806        73.294        50.173        47.190        35.603        15.759        6.6238        3.9318    
    60    135.00        23.264        71.396        48.050        47.424        35.516        16.647        6.5333        3.7058    
    61    137.25        22.320        70.024        47.652        48.050        34.571        17.563        6.4955        4.1208    
    62    139.50        22.782        69.270        49.103        47.994        35.054        16.604        6.2124        3.8214    
    63    141.75        25.244        73.160        48.763        45.919        35.211        16.343        6.8968        3.4240    
    64    144.00        24.161        71.828        46.862        48.424        35.292        15.136        6.2432        3.4676    
    65    146.25        22.349        68.860        49.043        46.465        36.358        15.675        6.8636        3.4724    
    66    148.50        22.746        69.917        48.883        48.618        37.075        16.300        7.4199        3.4506    
    67    150.75        20.683        69.482        49.866        48.223        35.685        15.928        6.8415        3.7972    
    68    153.00        18.345        71.128        47.809        47.827        36.068        16.713        6.5628        3.0697    
    69    155.25        18.688        71.662        46.039        48.135        34.557        16.595        6.6046        3.1031    
    70    157.50        16.911        69.051        50.212        46.680        34.974        16.738        6.8575        2.6233    
    71    159.75        17.464        70.869        48.108        47.115        35.430        16.617        6.5534        3.2962    
    72    162.00        16.918        67.104        48.276        45.788        34.449        16.806        6.7559        3.2040    
    73    164.25        16.496        68.955        49.592        44.933        34.121        16.388        6.8032        3.1018    
    74    166.50        17.605        68.551        49.422        46.536        36.708        17.635        6.3436        3.7598    
    75    168.75        19.139        68.458        49.241        46.535        34.992        18.296        6.1976        3.2807    
    76    171.00        19.035        66.454        47.743        46.976        34.248        17.128        6.2216        3.0988    
    77    173.25        18.110        69.096        47.434        46.542        33.595        16.633        6.3910        3.3400    
    78    175.50        18.600        67.820        47.094        44.448        33.838        15.517        6.3157        3.0995    
    79    177.75        17.474        65.009        46.504        45.049        34.371        16.153        5.7685        2.8622    
    80    180.00        16.742        65.134        47.447        44.215        34.513        16.210        5.5807        3.0515    
    81    182.25        17.009        65.397        48.740        44.202        35.798        15.839        5.9345        2.9586    
    82    184.50        16.109        66.618        48.417        45.705        33.968        16.035        6.6247        2.8071    
    83    186.75        16.622        64.735        47.874        45.719        34.679        16.609        6.7897        2.8263    
    84    189.00        18.963        65.141        46.332        46.601        35.288        16.311        6.1026        2.7818    
    85    191.25        16.621        63.570        48.523        45.774        34.207        16.591        5.9231        2.9992    
    86    193.50        14.869        65.427        46.476        45.205        33.593        16.155        6.4962        3.2470    
    87    195.75        14.164        63.300        46.718        44.294        34.168        16.545        6.2361        3.0146    
    88    198.00        13.832        63.838        45.857        44.962        34.958        17.879        5.5999        2.7316    
    89    200.25        13.963        64.152        46.988        42.196        36.222        17.275        6.1918        2.9338    
    90    202.50        14.941        63.394        46.825        43.612        34.610        17.476        6.3000        2.9716    
    91    204.75        13.635        62.107        47.622        42.280        35.023        17.425        6.5026        3.0861    
    92    207.00        15.138        62.469        47.882        42.569        35.702        16.307        7.8645        3.0962    
    93    209.25        13.456        60.442        45.338        43.486        35.085        17.660        6.8790        3.0160    
    94    211.50        14.754        60.554        45.640        43.874        35.851        16.770        6.9489        3.0244    
    95    213.75        14.617        59.102        45.938        43.289        34.122        17.381        6.7323        3.1024    
    96    216.00        13.927        59.318        45.240        41.779        34.873        17.641        6.4983        2.9790    
    97    218.25        14.685        60.589        45.525        42.329        34.765        17.042        6.1545        2.8781    
    98    220.50        13.743        59.252        45.803        41.335        33.888        16.631        6.2924        2.6930    
    99    222.75        14.689        58.868        44.186        41.435        34.072        16.624        5.6750        2.9341    
   100    225.00        13.830        60.421        44.235        43.366        34.562        16.454        5.6088        3.1731    
   101    227.25        14.536        61.273        47.687        42.290        34.766        16.584        5.9968        2.7765    
   102    229.50        13.399        61.207        46.277        43.310        33.718        17.136        5.7938        3.2058    
   103    231.75        11.835        59.085        47.153        42.780        35.649        17.352        6.4952        2.8763    
   104    234.00        11.963        59.176        45.543        41.501        34.851        16.688        5.5497        2.1813    
   105    236.25        11.857        58.949        46.110        43.568        34.486        16.373        6.0166        2.2828    
   106    238.50        11.938        57.921        44.636        40.255        34.890        16.426        6.4865        2.4042    
   107    240.75        12.765        57.173        45.439        41.253        34.894        16.033        6.0043        2.5440    
   108    243.00        12.002        56.635        44.389        39.408        33.729        16.280        6.4805        2.5030    
   109    245.25        11.610        54.605        44.749        41.725        33.167        16.425        5.7587        2.5000    
   110    247.50        11.827        55.086        44.614        41.028        34.687        16.524        5.2081        2.5759    
   111    249.75        11.724        54.796        45.398        41.294        34.515        16.400        5.5682        2.5736    
   112    252.00        13.250        54.660        46.479        42.498        34.183        15.956        5.9637        2.4407    
   113    254.25        12.117        55.980        47.054        41.375        35.356        15.611        5.9499        2.3777    
   114    256.50        11.778        52.492        46.181        41.752        35.683        16.172        6.6292        2.3275    
   115    258.75        11.415        54.435        46.700        41.446        35.444        17.444        6.5404        2.4615    
   116    261.00        10.677        54.464        45.343        40.923        33.985        16.872        5.6948        2.4610    
   117    263.25        11.121        54.329        46.314        41.579        32.720        16.682        5.7831        2.2816    
   118    265.50        11.708        55.588        46.466        40.996        33.518        16.453        5.7828        2.4747    
   119    267.75        11.021        55.966        47.746        41.356        34.484        17.362        5.7190        2.6250    
   120    270.00        10.453        53.797        47.180        40.197        34.989        16.972        5.8113        2.8188    
   121    272.25        11.621        53.101        46.126        40.440        34.449        16.638        6.2204        2.5682    
   122    274.50        10.739        52.278        46.254        41.690        33.929        16.104        6.2124        2.6842    
   123    276.75        10.956        51.998        45.914        41.055        33.675        16.461        6.3636        2.7176    
   124    279.00        10.218        50.953        47.778        42.575        32.773        16.645        6.4598        2.4553    
   125    281.25        9.9315        51.099        46.670        41.999        34.562        17.140        6.5284        2.4745    
   126    283.50        10.885        50.788        46.114        41.475        34.658        16.546        6.5148        2.6006    
   127    285.75        9.7970        48.701        45.709        40.114        34.294        16.491        5.9061        2.5584    
   128    288.00        9.5173        50.783        47.655        40.384        35.927        16.245        6.0901        2.5542    
   129    290.25        10.606        49.855        47.465        41.927        35.418        17.125        6.2943        1.9753    
   130    292.50        9.2750        50.197        44.587        40.251        34.044        17.037        6.0485        2.1070    
   131    294.75        8.0931        48.116        45.492        40.745        33.137        16.287        6.0902        1.8919    
   132    297.00        8.5648        48.849        46.446        39.521        34.055        15.836        6.3105        2.3692    
   133    299.25        8.9265        50.685        47.089        39.917        33.424        15.744        5.7964        2.4419    
   134    301.50        9.4625        48.590        46.824        40.192        34.337        16.123        5.2704        2.4539    
   135    303.75        8.6809        48.017        46.349        40.416        33.705        16.135        5.3761        2.4226    
   136    306.00        8.0820        48.501        47.232        38.938        33.995        15.852        5.7249        2.4265    
   137    308.25        9.3240        47.287        45.101        39.465        34.362        16.128        5.4001        2.6883    
   138    310.50        8.8304        46.814        45.554        39.660        34.102        16.002        5.7564        2.1505    
   139    312.75        9.0424        46.725        46.394        38.324        34.200        16.123        6.1575        2.2653    
   140    315.00        9.1427        46.203        45.442        39.728        33.579        16.261        5.5841        2.4418    
   141    317.25        8.9187        45.719        47.021        39.155        33.491        15.915        5.9612        2.1411    
   142    319.50        8.4384        44.636        46.807        41.284        32.271        16.196        6.1608        2.2171    
   143    321.75        8.6669        48.445        46.249        39.855        33.937        16.064        6.4826        2.2048    
   144    324.00        7.5410        48.404        45.945        40.223        34.206        16.348        6.1745        2.5697    
   145    326.25        7.3765        46.186        46.142        41.322        33.498        16.505        6.2587        2.3214    
   146    328.50        7.4368        45.885        46.075        41.599        35.156        15.663        6.1609        1.9511    
   147    330.75        7.1998        44.466        47.635        39.877        34.396        16.377        5.3414        2.1042    
   148    333.00        6.9909        43.966        43.969        39.987        33.677        15.899        5.3290        2.1207    
   149    335.25        7.0369        43.820        45.662        39.475        34.108        16.551        5.3909        2.2674    
   150    337.50        7.2835        43.427        46.036        40.250        34.291        16.363        5.5319        2.1820    
   151    339.75        6.8990        41.256        46.982        40.505        35.028        15.937        5.8458        1.9547    
   152    342.00        7.5055        41.810        47.646        40.230        35.067        16.153        5.6896        2.2297    
   153    344.25        7.2564        41.689        47.031        39.177        34.699        16.774        5.9195        2.1086    
   154    346.50        7.1753        41.581        47.423        40.003        34.774        16.192        5.7944        2.2483    
   155    348.75        6.5964        41.658        47.456        39.107        32.745        16.040        5.9874        2.0741    
   156    351.00        7.0277        39.230        47.849        39.080        33.288        15.814        5.5330        1.7994    
   157    353.25        6.3021        40.223        48.123        39.188        33.396        16.509        5.6817        1.6235    
   158    355.50        7.1777        40.402        45.289        39.725        34.442        16.086        5.6848        1.9539    
   159    357.75        7.2609        40.157        46.765        39.718        34.262        16.912        5.8200        2.0569    
   160    360.00        7.4973        39.371        46.204        39.492        35.093        16.616        5.3157        2.0141    
   161    362.25        6.5829        40.178        47.206        40.053        34.491        16.601        5.7062        1.8917    
   162    364.50        6.5019        39.616        46.790        39.848        33.637        16.547        5.6660        1.8599    
   163    366.75        7.0677        38.710        45.550        39.293        33.068        16.840        5.6956        1.7245    
   164    369.00        7.1088        38.016        46.315        39.365        33.194        16.801        5.7125        1.7686    
   165    371.25        7.3030        36.899        47.081        38.867        34.348        16.826        5.4847        1.9832    
   166    373.50        5.8141        37.603        46.625        39.528        33.917        15.914        5.6160        2.5314    
   167    375.75        5.8205        37.057        47.178        38.916        34.844        16.596        5.7342        2.7325    
   168    378.00        6.2381        36.494        46.352        39.072        33.180        15.918        5.5957        2.5795    
   169    380.25        6.5421        37.084        46.807        39.466        33.956        15.618        5.4219        2.0716    
   170    382.50        7.0318        35.526        46.373        38.940        32.742        16.234        5.6281        2.0128    
   171    384.75        6.7855        34.488        45.887        38.999        33.902        16.668        4.5063        2.1865    
   172    387.00        7.4785        35.023        46.648        40.241        33.762        16.647        4.5965        2.5198    
   173    389.25        6.7136        35.225        46.968        38.940        33.526        16.151        5.0588        2.0060    
   174    391.50        6.0859        35.423        46.043        39.086        34.133        17.171        5.0843        1.9851    
   175    393.75        6.1589        34.740        46.856        38.428        34.631        16.661        5.3174        2.3099    
   176    396.00        5.6641        33.629        45.877        37.381        33.092        16.389        5.3027        2.3736    
   177    398.25        6.0233        33.063        46.132        37.788        32.604        15.756        6.1176        2.1455    
   178    400.50        4.8818        33.365        46.874        38.284        32.904        15.861        6.2839        1.9888    
   179    402.75        5.0818        34.640        45.709        39.076        32.931        16.080        5.3055        2.1123    
   180    405.00        5.3236        33.858        45.323        39.037        33.411        15.892        5.2367        2.2899    
   181    407.25        5.4743        33.391        46.777        36.541        33.859        15.786        5.3364        2.0379    
   182    409.50        5.8610        32.729        46.345        37.230        33.981        16.153        5.0011        1.9501    
   183    411.75        5.4435        32.698        46.671        38.067        34.132        17.041        5.1336        2.0232    
   184    414.00        5.0907        31.415        45.265        37.898        34.725        16.335        5.0526        2.1828    
   185    416.25        4.9442        31.287        45.800        37.383        33.848        16.149        5.3300        2.2683    
   186    418.50        5.1973        31.209        45.947        37.465        33.192        16.137        4.4703        2.0803    
   187    420.75        4.8779        31.660        46.633        38.230        33.309        15.570        4.8986        2.0149    
   188    423.00        4.8634        29.701        45.974        38.976        34.148        15.706        5.8027        2.0289    
   189    425.25        4.9701        30.836        43.656        38.217        32.578        16.535        5.4285        2.1720    
   190    427.50        5.2819        30.651        45.300        38.238        33.455        16.319        5.0582        2.3547    
   191    429.75        5.0864        29.675        45.226        38.253        32.776        15.839        5.1731        1.8533    
   192    432.00        4.7639        29.723        45.828        38.997        33.981        16.582        4.9416        2.1075    
   193    434.25        4.7008        30.413        45.347        39.226        33.346        16.298        5.2135        1.9506    
   194    436.50        4.8143        28.931        44.604        38.593        33.412        16.601        5.1483        2.3393    
   195    438.75        4.2838        29.359        44.426        38.492        32.336        16.382        5.3363        2.5461    
   196    441.00        4.3483        28.934        45.335        37.723        32.788        16.401        4.7856        2.2488    
   197    443.25        4.3243        28.742        43.807        37.791        33.793        15.982        5.1857        2.0852    
   198    445.50        4.2046        28.454        44.418        37.542        33.396        15.888        5.2847        2.4817    
   199    447.75        4.0074        28.139        42.742        38.194        32.569        16.464        4.9885        2.4154    
   200    450.00        4.6350        27.691        43.631        38.520        32.128        16.324        4.5680        2.0914    
   201    452.25        4.5244        28.109        43.658        37.263        32.083        17.083        4.5794        2.0356    
   202    454.50        4.7938        26.655        44.246        37.738        31.115        16.235        4.6861        2.2257    
   203    456.75        4.8747        27.198        44.151        38.769        31.979        16.362        4.5878        2.1218    
   204    459.00        4.0223        27.810        43.386        38.385        31.553        16.066        4.5016        2.1748    
   205    461.25        4.5357        26.666        42.932        38.630        31.672        16.918        5.4793        2.4698    
   206    463.50        3.9752        26.315        43.886        38.079        33.030        17.696        5.2012        2.2234    
   207    465.75        3.9832        25.256        42.509        38.977        33.613        17.082        4.6559        2.4487    
   208    468.00        4.0037        25.431        42.985        38.615        32.918        16.492        4.4728        2.0995    
   209    470.25        3.8763        25.117        43.136        38.171        32.619        16.971        4.1570        2.1952    
   210    472.50        6.0302        25.322        42.517        37.619        31.758        16.643        4.1613        2.0828    
   211    474.75        5.0414        26.802        42.409        37.542        32.854        16.717        4.4875        1.6307    
   212    477.00        4.2969        26.048        42.639        37.570        34.175        16.452        4.5269        1.7456    
   213    479.25        4.1091        25.554        42.405        37.489        32.938        16.741        4.4448        2.0619    
   214    481.50        4.1401        25.373        42.158        37.699        32.745        17.033        4.8270        2.2901    
   215    483.75        3.6910        25.125        41.671        36.631        33.747        16.922        4.5260        2.6023    
   216    486.00        4.0745        24.881        41.404        36.689        33.264        16.622        4.3008        2.7281    
   217    488.25        3.7088        25.168        41.827        38.152        32.385        17.046        4.3248        2.6531    
   218    490.50        3.3835        24.472        41.290        37.520        32.389        16.964        4.2687        2.6055    
   219    492.75        3.5215        24.355        42.382        37.205        33.136        16.124        4.5463        2.3680    
   220    495.00        3.3528        24.071        41.614        37.792        31.143        16.736        3.9828        2.2836    
   221    497.25        4.1485        23.310        42.349        37.927        31.499        16.920        3.9680        2.5290    
   222    499.50        3.6616        23.098        42.063        38.146        32.257        16.827        4.7853        2.2395    
   223    500.00        3.6057        22.574        41.448        37.686        32.279        15.979        4.4861        2.3452    
   224    502.25        4.0020        22.265        41.178        38.156        31.778        16.518        4.9057        2.5795    
   225    504.50        3.5291        21.557        41.911        37.779        32.016        16.683        5.0158        2.3558    
   226    506.75        3.5621        21.740        41.898        37.610        32.990        17.398        4.7981        2.0350    
   227    509.00        3.3842        22.243        41.528        37.323        33.568        17.233        4.4151        2.0561    
   228    511.25        3.3380        22.177        42.670        36.940        32.860        16.423        4.5127        2.3628    
   229    513.50        4.3961        21.966        41.395        36.964        33.974        17.192        4.7219        2.0040    
   230    515.75        3.8243        20.956        41.436        37.381        32.510        17.199        5.2214        1.9437    
   231    518.00        3.5992        21.036        40.730        36.556        30.550        16.974        4.8750        2.4896    
   232    520.25        3.7060        21.877        39.874        35.907        31.344        16.489        4.4117        2.6566    
   233    522.50        3.5803        22.316        40.067        36.414        33.188        15.787        4.6595        2.5384    
   234    524.75        3.2287        22.208        40.272        36.125        33.084        17.249        4.1841        2.4079    
   235    527.00        3.1025        23.713        40.462        36.865        33.216        16.791        4.1238        2.2906    
   236    529.25        3.2964        22.698        40.095        36.235        32.766        16.874        4.5761        2.4008    
   237    531.50        2.8354        21.787        39.118        36.356        32.355        16.807        4.2385        2.3748    
   238    533.75        3.3966        20.437        39.901        37.039        31.429        16.553        4.3247        2.6433    
   239    536.00        3.1803        20.271        39.880        36.609        31.802        16.418        3.5973        2.4917    
   240    538.25        2.7561        19.942        40.284        34.964        32.424        17.113        3.6660        2.4457    
   241    540.50        2.9745        19.900        39.962        36.058        31.772        16.926        4.5720        2.3614    
   242    542.75        2.9329        19.800        38.905        36.488        32.321        16.545        4.4185        2.3813    
   243    545.00        2.9634        19.935        38.327        35.610        32.555        16.596        4.5405        2.6758    
   244    547.25        3.0646        20.330        38.654        36.768        32.373        17.553        4.2436        2.5937    
   245    549.50        3.2290        19.155        37.823        36.547        31.966        17.519        4.0069        2.4454    
   246    551.75        3.3966        19.016        38.280        36.515        32.698        17.745        4.5593        2.7980    
   247    554.00        3.7407        18.739        36.475        36.413        31.327        17.602        4.3333        2.6773    
   248    556.25        2.8409        19.522        36.439        37.780        31.074        16.871        3.9891        2.5828    
   249    558.50        3.0309        19.269        37.451        36.637        30.503        17.242        4.3479        2.2944    
   250    560.75        3.6173        17.790        37.356        36.758        31.258        17.345        4.4343        2.1478    
   251    563.00        3.1908        17.982        36.789        36.682        31.377        16.184        4.8812        2.2217    
   252    565.25        3.2299        18.080        37.285        36.377        31.324        16.943        5.1041        2.1072    
   253    567.50        2.7467        19.874        36.787        36.546        31.324        16.234        4.0800        2.2644    
   254    569.75        3.7783        19.528        37.054        35.964        31.345        15.695        4.6069        2.4803    
   255    572.00        3.2430        19.796        36.353        35.170        30.784        17.462        4.4558        2.4172    
   256    574.25        3.6227        18.548        36.554        35.538        30.488        17.722        4.4024        2.4466    
   257    576.50        3.5766        17.709        35.806        35.299        31.328        17.319        4.7249        2.6389    
   258    578.75        3.3506        17.690        35.884        35.220        30.604        16.824        4.2796        2.5758    
   259    581.00        3.1110        17.608        35.729        36.464        30.780        16.395        4.3883        2.4130    
   260    583.25        2.4285        18.953        36.213        36.775        31.112        17.203        5.0035        2.6317    
   261    585.50        2.4934        17.352        35.221        36.773        31.952        16.581        4.3699        2.7491    
   262    587.75        2.6754        16.759        35.150        36.067        31.178        17.543        4.1311        2.5611    
   263    590.00        2.3431        17.289        33.869        36.119        30.975        16.979        4.4569        2.7209    
   264    592.25        2.6714        17.517        34.414        37.094        29.854        16.846        4.4360        2.4089    
   265    594.50        2.7923        16.126        34.784        36.063        29.792        16.953        4.2908        2.5777    
   266    596.75        2.4056        16.849        34.570        35.950        30.181        17.271        4.9855        2.5730    
   267    599.00        2.4544        16.343        33.959        36.296        30.006        17.016        4.9001        2.4940    
   268    601.25        2.7841        15.492        33.555        35.987        29.772        17.155        5.2045        2.1029    
   269    603.50        2.7926        15.644        33.289        34.639        30.433        17.387        4.5635        2.0328    
   270    605.75        2.7057        16.490        33.762        34.967        29.754        17.021        4.6349        2.0890    
   271    608.00        2.5682        16.060        33.761        35.120        29.446        17.077        4.3326        2.6431    
   272    610.25        2.5008        16.748        34.045        34.521        29.666        17.427        4.3365        2.6776    
   273    612.50        2.6656        16.654        33.366        35.291        30.737        17.220        4.4095        2.2596    
   274    614.75        2.5868        16.102        32.365        35.809        30.783        17.418        4.6861        2.3879    
   275    617.00        3.1631        16.889        32.295        35.236        31.156        16.374        4.8468        2.2526    
   276    619.25        2.4605        16.915        33.544        34.972        30.066        18.077        4.8608        2.5328    
   277    621.50        2.3905        15.731        33.014        35.351        30.449        18.013        5.2772        2.6853    
   278    623.75        1.8089        17.313        32.410        34.138        30.771        16.972        5.1451        2.7270    
   279    626.00        2.0893        16.883        32.166        35.319        30.266        16.997        4.4047        2.6302    
   280    628.25        2.1136        16.053        32.341        35.491        29.758        17.074        4.4640        2.7542    
   281    630.50        2.1906        15.576        31.698        33.797        29.153        17.464        4.2760        2.7403    
   282    632.75        2.4508        15.785        31.533        34.127        29.056        17.434        3.7225        2.6298    
   283    635.00        2.0145        14.558        31.532        34.940        29.588        17.624        3.8956        2.6267    
   284    637.25        2.2555        14.974        31.322        33.265        29.704        17.199        3.8756        2.5902    
   285    639.50        2.2394        14.836        31.168        35.192        29.615        17.130        3.7120        2.4653    
   286    641.75        2.2425        14.608        31.208        35.258        29.421        16.797        3.6422        2.4610    
   287    644.00        2.3157        14.192        31.395        33.776        29.143        16.766        4.5182        2.6196    
   288    646.25        2.1845        14.852        30.734        33.509        30.632        17.067        4.1299        2.2398    
   289    648.50        2.0109        15.417        30.940        33.385        30.523        17.600        4.3778        2.0784    
   290    650.75        2.1426        14.782        30.325        33.196        29.014        18.610        4.2008        2.4318    
   291    653.00        2.7525        13.668        30.182        32.893        29.045        18.604        4.2591        2.0462    
   292    655.25        2.4981        14.349        30.100        34.503        30.200        18.537        4.3474        2.2652    
   293    657.50        2.4669        14.291        29.508        34.166        30.673        16.918        4.5281        2.1012    
   294    659.75        2.4464        13.963        29.481        34.237        29.184        16.007        4.4401        1.9093    
   295    662.00        2.5395        13.685        29.414        33.870        29.739        16.213        4.3127        2.5006    
   296    664.25        2.1456        13.190        29.498        34.317        30.809        16.755        4.8222        2.6723    
   297    666.50        2.2024        12.465        29.047        33.100        30.074        17.507        4.5527        2.5406    
   298    668.75        2.3421        12.148        28.794        33.190        30.216        17.065        4.8982        2.4759    
   299    671.00        2.5237        12.929        29.322        33.729        29.365        17.198        4.7424        2.0496    
   300    673.25        2.0379        13.369        29.228        33.883        29.095        17.817        4.6530        2.6829    
   301    675.50        2.1860        13.089        28.872        33.478        29.740        17.245        4.3240        2.5412    
   302    677.75        2.0204        12.876        28.129        33.600        29.978        16.033        3.2811        2.5488    
   303    680.00        2.4536        12.885        28.256        33.397        28.580        16.893        3.7205        2.4221    
   304    682.25        2.1444        13.099        27.790        33.424        29.512        17.247        4.7274        2.6241    
   305    684.50        2.2615        11.918        27.123        33.733        30.961        17.224        3.7344        2.5274    
   306    686.75        2.2047        12.700        28.404        33.979        30.297        18.081        4.1473        2.1808    
   307    689.00        2.0755        12.217        28.064        32.910        30.329        18.071        4.1099        2.3621    
   308    691.25        2.1165        11.826        27.518        33.532        29.529        16.868        4.4052        2.5718    
   309    693.50        2.0673        12.180        27.403        32.373        30.328        16.783        3.9420        2.6066    
   310    695.75        1.9349        11.992        27.400        32.615        28.283        17.809        4.3319        2.6942    
   311    698.00        1.9133        12.348        27.368        33.470        29.134        18.004        3.8997        2.5178    
   312    700.25        2.0553        11.698        27.247        33.710        28.309        19.202        3.5800        2.5801    
   313    702.50        1.8439        12.646        26.760        33.212        27.741        18.373        4.2013        2.5844    
   314    704.75        1.8326        11.425        26.793        31.402        29.667        17.610        4.4544        2.4172    
   315    707.00        1.9498        11.547        26.248        30.791        29.836        17.602        5.1386        2.4014    
   316    709.25        2.1311        11.984        26.464        30.685        29.830        17.463        3.9122        2.0750    
   317    711.50        1.7401        11.398        26.175        31.390        28.865        17.174        4.0122        2.6354    
   318    713.75        2.0234        10.739        25.527        31.531        28.740        17.328        3.8095        2.4989    
   319    716.00        1.5641        11.345        25.289        30.459        28.393        17.193        4.4461        2.4077    
   320    718.25        1.5357        11.590        25.545        30.438        28.256        17.969        4.3875        2.4651    
   321    720.50        1.5339        11.505        24.657        30.793        28.592        16.642        3.9636        2.7667    
   322    722.75        1.7307        11.705        25.292        31.353        28.937        17.239        4.1138        2.2248    
   323    725.00        1.6312        11.085        24.724        31.986        28.472        18.054        4.6844        2.3745    
   324    727.25        1.5738        10.975        24.603        32.016        28.626        17.692        4.2379        2.3728    
   325    729.50        1.8029        10.940        24.229        31.840        29.849        17.440        4.9036        2.6746    
   326    731.75        1.7081        11.061        24.930        31.345        28.489        17.881        4.9893        2.4359    
   327    734.00        1.6959        10.042        24.737        31.359        29.503        16.777        4.2893        2.3019    
   328    736.25        1.6822        9.7316        24.496        30.201        28.054        17.404        4.3897        1.9783    
   329    738.50        1.5097        9.7815        24.618        31.994        27.476        18.291        4.3176        2.0507    
   330    740.75        1.4700        10.221        24.120        31.196        27.448        16.806        3.7109        2.3028    
   331    743.00        1.4627        10.728        23.846        30.548        28.323        16.991        4.2100        2.3645    
   332    745.25        1.6196        9.8787        23.622        31.177        28.856        17.450        4.7088        2.1588    
   333    747.50        1.8339        10.004        22.941        31.610        29.053        17.680        4.9242        2.1302    
   334    749.75        2.2090        10.686        22.809        30.843        27.960        16.778        4.7510        2.4514    
   335    750.00        2.2087        10.675        23.888        31.066        27.644        16.637        4.8169        2.3865    
   336    752.25        1.7432        10.906        23.640        31.202        27.608        17.754        5.4176        2.6972    
   337    754.50        1.7014        11.361        23.562        28.754        27.031        16.599        4.7920        2.6975    
   338    756.75        1.4185        10.890        22.324        30.406        28.118        16.602        4.3367        2.7109    
   339    759.00        1.4601        10.344        22.556        30.604        27.699        16.543        4.8820        2.4767    
   340    761.25        1.3390        9.0940        23.413        30.771        28.279        16.526        4.9335        2.1522    
   341    763.50        1.3185        9.8610        22.565        29.734        28.821        17.354        5.0757        2.0883    
   342    765.75        1.3535        10.560        22.783        29.039        28.793        17.676        4.4891        2.3613    
   343    768.00        1.4642        10.267        23.205        28.969        29.420        17.153        4.9948        2.1321    
   344    770.25        1.6170        10.666        22.570        28.935        28.978        17.747        4.3645        2.4157    
   345    772.50        1.6068        9.7483        22.164        28.813        27.767        17.101        4.4450        2.2554    
   346    774.75        1.7189        9.8899        21.982        29.834        27.343        17.371        4.0139        2.1945    
   347    777.00        1.6150        9.3635        21.669        30.476        28.885        17.359        4.0311        2.6968    
   348    779.25        1.8765        9.2199        21.009        28.364        27.583        17.060        4.7340        2.3194    
   349    781.50        1.7246        9.5208        22.716        28.127        26.178        16.251        4.1857        2.4643    
   350    783.75        1.8409        9.5038        21.252        28.865        26.752        16.256        4.6147        2.4831    
   351    786.00        1.7567        9.2064        21.765        28.572        26.785        16.890        4.2589        2.0832    
   352    788.25        1.7177        9.9985        21.443        28.385        26.754        16.870        4.0242        2.1900    
   353    790.50        1.4878        9.4902        21.070        27.569        27.656        17.356        4.3869        2.0919    
   354    792.75        1.5132        9.2592        21.535        28.303        27.210        17.587        5.0996        2.3073    
   355    795.00        1.3817        8.9627        21.630        27.313        27.378        18.089        4.9569        2.4396    
   356    797.25        1.4692        9.5430        20.924        27.897        25.811        17.087        5.0983        2.1511    
   357    799.50        1.4607        9.2892        21.732        28.701        27.173        17.808        5.1174        2.3390    
   358    801.75        1.4619        9.3435        20.854        28.520        26.595        17.751        5.6211        2.1493    
   359    804.00        1.4287        9.1237        20.466        28.789        27.170        16.430        4.6373        2.2499    
   360    806.25        1.4407        9.4569        21.137        27.961        26.428        16.229        5.0306        2.2807    
   361    808.50        1.4671        9.4479        20.754        27.614        26.748        17.105        5.4512        2.6375    
   362    810.75        1.2078        8.5712        21.083        28.038        26.314        17.114        4.5032        2.3135    
   363    813.00        1.1731        8.8897        20.403        27.608        27.127        17.099        4.1946        2.3555    
   364    815.25        1.5915        8.7350        20.273        27.952        26.229        17.078        3.7808        2.1847    
   365    817.50        1.6186        10.093        19.089        28.896        26.988        17.468        4.4139        2.3842    
   366    819.75        1.5799        9.0262        18.680        28.953        25.599        16.845        4.7671        2.1036    
   367    822.00        1.3205        8.8779        19.120        27.962        26.526        17.726        4.6920        2.0166    
   368    824.25        1.7480        8.8945        18.761        28.329        27.322        17.351        4.6207        2.1041    
   369    826.50        1.5885        8.7153        18.842        28.214        27.326        17.272        4.1144        2.2028    
   370    828.75        1.5327        8.2304        19.571        27.634        26.495        17.383        4.4651        2.2368    
   371    831.00        2.0179        8.6634        19.888        26.987        25.284        17.265        4.8528        2.1525    
   372    833.25        1.7601        8.9240        19.330        27.755        27.381        17.612        5.1646        2.1369    
   373    835.50        1.3147        8.6546        19.006        26.412        26.034        16.759        6.2212        2.2462    
   374    837.75        1.3280        8.7605        18.529        26.673        27.161        16.951        5.1452        2.3283    
   375    840.00        1.1210        8.8279        18.814        27.095        26.854        16.751        4.1535        2.0816    
   376    842.25        1.2452        8.6700        18.182        26.098        26.382        17.017        4.9927        2.0230    
   377    844.50        1.2705        8.6315        18.859        25.847        26.280        16.121        4.4535        2.2129    
   378    846.75        1.2037        7.5652        19.230        26.186        25.427        16.340        5.3699        1.8935    
   379    849.00        1.5186        7.8514        19.866        27.347        25.434        17.208        5.0297        2.1877    
   380    851.25        1.4267        8.0832        19.560        26.736        25.544        17.649        4.8805        2.0520    
   381    853.50        1.4793        7.6235        18.441        26.205        25.606        16.365        4.6355        1.9868    
   382    855.75        1.2452        7.6091        18.124        26.439        25.912        16.579        5.3277        2.1435    
   383    858.00        1.3214        7.7453        17.631        25.361        25.266        17.270        5.0838        1.8915    
   384    860.25        1.4144        7.2864        17.298        25.905        25.079        17.262        5.7684        2.6702    
   385    862.50        1.1901        7.6559        16.809        26.836        24.953        18.056        6.0422        2.3264    
   386    864.75        1.2358        7.9357        17.169        25.695        25.299        17.262        4.8448        2.2523    
   387    867.00        1.0190        7.3799        17.600        26.098        25.335        17.738        5.2934        2.3737    
   388    869.25        1.0910        8.1324        17.318        25.818        24.562        17.281        5.2961        2.2178    
   389    871.50        1.1904        7.5361        16.468        26.809        25.121        16.663        5.1467        2.0083    
   390    873.75        1.1865        7.5746        17.282        26.078        26.392        16.078        5.5832        2.0048    
   391    876.00        1.2832        7.5131        16.672        25.328        26.657        16.192        5.0348        1.9172    
   392    878.25        1.1945        7.4028        17.037        25.093        26.195        16.197        5.4628        2.0926    
   393    880.50        1.1815        7.8393        17.028        24.735        24.980        16.327        5.2356        2.3715    
   394    882.75        1.1353        7.6569        16.999        23.952        25.055        16.512        5.3897        2.3199    
   395    885.00        1.2087        7.3590        16.379        24.541        25.931        16.672        5.3238        1.9923    
   396    887.25        1.1760        7.3094        16.530        25.096        25.262        17.018        5.2688        1.9125    
   397    889.50        1.2120        7.1031        15.996        24.243        24.017        16.608        5.3688        2.3687    
   398    891.75        1.0076        7.3323        15.992        25.352        25.694        18.362        4.9974        2.3899    
   399    894.00        1.0404        6.9970        15.969        25.630        25.267        17.485        4.7099        2.0060    
   400    896.25        1.0370        6.7282        15.649        24.687        24.946        17.277        4.6820        1.9645    
   401    898.50        1.1200        6.4938        15.801        24.273        24.609        16.964        4.7341        2.0718    
   402    900.75       0.98489        7.3099        15.733        24.618        23.611        15.323        4.0464        1.7922    
   403    903.00        1.0232        6.9041        15.494        24.445        23.577        16.589        3.8622        1.9544    
   404    905.25       0.94528        7.2694        15.505        24.176        25.130        15.707        4.5952        2.0612    
   405    907.50        1.0260        7.1278        15.650        24.629        24.805        15.557        5.1403        2.2778    
   406    909.75        1.0982        7.1007        15.929        25.220        25.759        16.480        4.9620        2.3578    
   407    912.00        1.0480        7.0225        15.633        25.006        26.768        16.119        4.6341        2.0089    
   408    914.25       0.88558        6.7251        15.611        24.750        25.350        16.021        4.8181        2.0822    
   409    916.50        1.4147        7.2653        15.737        23.652        24.205        16.081        4.4296        1.6970    
   410    918.75        1.1905        6.7659        15.645        24.085        23.943        16.380        5.1164        1.9947    
   411    921.00        1.2214        6.9657        15.905        23.314        24.547        17.425        5.5198        1.8963    
   412    923.25        1.1281        6.9268        15.021        22.608        24.011        16.962        5.7306        2.0762    
   413    925.50        1.1690        6.2657        15.061        23.038        24.404        16.846        5.2757        2.0735    
   414    927.75        1.0451        5.9885        14.821        22.939        24.878        16.184        5.2693        2.1831    
   415    930.00        1.1684        5.9722        14.300        22.464        23.077        16.994        5.2435        1.9745    
   416    932.25        1.0551        5.9702        14.133        22.862        22.456        16.566        5.3601        2.1358    
   417    934.50       0.95169        5.8447        14.690        23.225        23.758        17.060        5.4204        1.8942    
   418    936.75       0.90953        5.8507        14.654        22.417        23.271        16.347        5.6712        2.1184    
   419    939.00        1.0970        6.5384        15.273        22.355        23.252        16.359        5.8190        1.9965    
   420    941.25       0.97578        6.2987        14.205        22.314        23.588        16.214        6.1467        1.8424    
   421    943.50       0.97922        5.7334        14.376        22.907        23.366        16.006        5.3797        1.8994    
   422    945.75        1.0997        5.8659        14.479        22.703        22.150        16.443        5.3640        2.0634    
   423    948.00        1.0028        6.3480        15.252        23.120        22.379        15.761        5.8765        2.2092    
   424    950.25        1.0414        6.1354        14.751        23.171        22.923        15.217        5.1754        1.9851    
   425    952.50        1.0335        5.9588        13.663        23.891        22.377        16.376        5.7149        1.8957    
   426    954.75        1.0692        6.0317        13.816        23.495        23.425        16.499        5.5023        1.7775    
   427    957.00       0.93341        5.7548        14.195        22.602        23.962        16.911        5.3535        1.9906    
   428    959.25        1.0451        5.8548        14.169        22.276        23.127        16.538        5.1286        1.9479    
   429    961.50       0.97767        5.4122        13.849        21.631        22.732        16.293        4.4833        1.9090    
   430    963.75        1.1222        5.6504        13.504        21.620        22.402        16.136        3.9326        1.7842    
   431    966.00        1.0757        5.8622        14.036        21.242        22.814        17.183        4.9763        1.8471    
   432    968.25       0.91549        5.7606        13.894        21.162        22.422        16.185        4.5177        1.7785    
   433    970.50        1.0007        5.8497        13.736        21.309        23.153        15.861        5.1753        1.7378    
   434    972.75        1.0265        5.8331        13.852        20.520        22.522        15.814        5.5473        2.0034    
   435    975.00        1.0193        5.6257        14.038        19.949        22.442        15.466        5.5391        2.0381    
   436    977.25       0.81113        5.5900        13.608        21.077        21.392        16.293        5.4132        1.8931    
   437    979.50       0.86668        5.3805        13.538        21.085        21.689        15.732        5.1855        1.7732    
   438    981.75       0.74719        5.5882        12.708        21.616        21.804        15.741        5.6616        1.8186    
   439    984.00       0.82689        5.4373        12.906        21.123        21.080        15.885        5.3219        1.8389    
   440    986.25       0.85937        5.3165        13.069        20.494        21.385        15.705        5.9963        2.1028    
   441    988.50       0.92336        5.4338        13.477        20.444        22.224        14.903        5.5654        1.9891    
   442    990.75       0.92978        5.3862        13.136        20.615        21.369        15.234        6.1786        1.9257    
   443    993.00       0.97288        5.8321        12.672        19.618        22.099        15.240        6.0076        1.9370    
   444    995.25       0.94215        5.3574        12.935        20.082        21.290        16.007        5.6730        2.0517    
   445    997.50       0.96469        5.4369        12.323        19.126        20.959        15.583        5.5379        1.6855    
   446    999.75       0.92148        5.4999        13.080        20.461        21.150        15.625        5.9672        1.7657    
   447    1000.0       0.90694        5.3817        13.220        18.701        20.956        15.534        5.9596        1.7604    
